# wavenumber (cm^-1)  VDOS (arb. units)   remove this line before running code
0 122.552
0.0636224 122.573
0.127245 122.636
0.190867 122.74
0.25449 122.886
0.318111 123.074
0.381734 123.303
0.445356 123.574
0.508979 123.886
0.572601 124.239
0.636224 124.635
0.699845 125.071
0.763467 125.549
0.82709 126.068
0.890711 126.628
0.954335 127.229
1.01796 127.87
1.08158 128.553
1.1452 129.276
1.20882 130.04
1.27245 130.844
1.33607 131.689
1.39969 132.573
1.46331 133.497
1.52694 134.461
1.59056 135.465
1.65418 136.508
1.7178 137.591
1.78143 138.712
1.84505 139.873
1.90867 141.072
1.97229 142.309
2.03591 143.585
2.09954 144.899
2.16316 146.25
2.22679 147.639
2.29039 149.066
2.35402 150.529
2.41764 152.03
2.48127 153.567
2.5449 155.14
2.60852 156.749
2.67215 158.394
2.73575 160.075
2.79938 161.791
2.863 163.541
2.92663 165.327
2.99025 167.147
3.05388 169
3.11748 170.888
3.18111 172.809
3.24473 174.763
3.30836 176.75
3.37199 178.769
3.43561 180.82
3.49922 182.904
3.56284 185.018
3.62647 187.164
3.69009 189.341
3.75372 191.548
3.81734 193.785
3.88097 196.052
3.94457 198.348
4.0082 200.673
4.07183 203.027
4.13545 205.409
4.19908 207.818
4.2627 210.256
4.32631 212.72
4.38993 215.212
4.45356 217.729
4.51718 220.273
4.58081 222.842
4.64443 225.437
4.70806 228.056
4.77166 230.699
4.83529 233.367
4.89892 236.058
4.96254 238.773
5.02617 241.51
5.08979 244.269
5.1534 247.051
5.21702 249.854
5.28065 252.679
5.34427 255.524
5.4079 258.389
5.47152 261.275
5.53515 264.18
5.59875 267.103
5.66238 270.046
5.72601 273.007
5.78963 275.986
5.85326 278.982
5.91688 281.996
5.98049 285.025
6.04411 288.071
6.10774 291.132
6.17136 294.21
6.23499 297.302
6.29861 300.408
6.36224 303.528
6.42584 306.663
6.48947 309.81
6.5531 312.97
6.61672 316.142
6.68035 319.326
6.74397 322.522
6.80758 325.729
6.8712 328.947
6.93483 332.175
6.99845 335.412
7.06208 338.66
7.1257 341.915
7.18933 345.181
7.25293 348.452
7.31656 351.733
7.38019 355.021
7.44381 358.315
7.50744 361.616
7.57106 364.923
7.63467 368.235
7.69829 371.553
7.76192 374.876
7.82554 378.202
7.88917 381.533
7.95279 384.866
8.01642 388.204
8.08002 391.545
8.14365 394.887
8.20728 398.23
8.2709 401.575
8.33453 404.923
8.39815 408.27
8.46176 411.617
8.52538 414.965
8.58901 418.31
8.65263 421.656
8.71626 425
8.77989 428.342
8.84351 431.681
8.90711 435.02
8.97074 438.354
9.03437 441.683
9.09799 445.011
9.16162 448.334
9.22524 451.651
9.28885 454.964
9.35247 458.271
9.4161 461.571
9.47972 464.868
9.54335 468.156
9.60698 471.436
9.6706 474.709
9.7342 477.976
9.79783 481.233
9.86146 484.481
9.92508 487.72
9.98871 490.951
10.0523 494.17
10.1159 497.38
10.1796 500.579
10.2432 503.766
10.3068 506.943
10.3704 510.107
10.4341 513.26
10.4977 516.399
10.5613 519.526
10.6249 522.638
10.6885 525.737
10.7522 528.821
10.8158 531.892
10.8794 534.946
10.943 537.985
11.0067 541.009
11.0703 544.016
11.1339 547.007
11.1975 549.98
11.2612 552.937
11.3248 555.874
11.3884 558.795
11.452 561.697
11.5156 564.579
11.5793 567.443
11.6429 570.286
11.7065 573.109
11.7701 575.911
11.8337 578.694
11.8974 581.454
11.961 584.193
12.0246 586.91
12.0882 589.605
12.1518 592.276
12.2155 594.924
12.2791 597.548
12.3427 600.149
12.4064 602.725
12.47 605.276
12.5336 607.804
12.5972 610.303
12.6608 612.778
12.7245 615.228
12.7881 617.65
12.8517 620.044
12.9153 622.413
12.9789 624.752
13.0426 627.066
13.1062 629.349
13.1698 631.604
13.2334 633.83
13.2971 636.026
13.3607 638.193
13.4243 640.33
13.4879 642.435
13.5515 644.51
13.6152 646.553
13.6788 648.564
13.7424 650.545
13.806 652.493
13.8697 654.408
13.9333 656.291
13.9969 658.14
14.0605 659.955
14.1242 661.737
14.1878 663.484
14.2514 665.197
14.315 666.875
14.3786 668.518
14.4423 670.126
14.5059 671.699
14.5695 673.234
14.6331 674.734
14.6967 676.197
14.7604 677.624
14.824 679.013
14.8876 680.364
14.9512 681.68
15.0149 682.956
15.0785 684.194
15.1421 685.394
15.2057 686.556
15.2694 687.677
15.333 688.762
15.3966 689.805
15.4602 690.811
15.5238 691.776
15.5875 692.701
15.6511 693.586
15.7147 694.432
15.7783 695.236
15.842 696
15.9056 696.723
15.9692 697.405
16.0328 698.046
16.0964 698.647
16.1601 699.204
16.2237 699.723
16.2873 700.199
16.3509 700.631
16.4146 701.025
16.4782 701.375
16.5418 701.684
16.6054 701.951
16.669 702.174
16.7327 702.357
16.7963 702.496
16.8599 702.596
16.9235 702.65
16.9872 702.665
17.0508 702.636
17.1144 702.566
17.178 702.452
17.2416 702.297
17.3053 702.1
17.3689 701.861
17.4325 701.579
17.4961 701.256
17.5597 700.889
17.6234 700.484
17.687 700.033
17.7506 699.544
17.8143 699.012
17.8779 698.438
17.9415 697.824
18.0051 697.169
18.0687 696.473
18.1324 695.735
18.196 694.957
18.2596 694.14
18.3232 693.281
18.3868 692.384
18.4505 691.447
18.5141 690.47
18.5777 689.454
18.6413 688.398
18.705 687.304
18.7686 686.172
18.8322 685.002
18.8958 683.795
18.9594 682.548
19.0231 681.267
19.0867 679.948
19.1503 678.593
19.2139 677.201
19.2776 675.774
19.3412 674.311
19.4048 672.814
19.4684 671.283
19.5321 669.716
19.5957 668.116
19.6593 666.485
19.7229 664.818
19.7865 663.121
19.8502 661.392
19.9138 659.63
19.9774 657.838
20.041 656.017
20.1046 654.165
20.1683 652.284
20.2319 650.373
20.2955 648.436
20.3591 646.47
20.4228 644.476
20.4864 642.456
20.55 640.41
20.6136 638.339
20.6773 636.242
20.7409 634.121
20.8045 631.976
20.8681 629.808
20.9317 627.618
20.9954 625.408
21.059 623.174
21.1226 620.92
21.1862 618.646
21.2498 616.352
21.3135 614.039
21.3771 611.709
21.4407 609.363
21.5043 606.999
21.568 604.618
21.6316 602.221
21.6952 599.812
21.7588 597.387
21.8225 594.949
21.8861 592.499
21.9497 590.037
22.0133 587.563
22.077 585.079
22.1406 582.584
22.2042 580.081
22.2679 577.569
22.3313 575.05
22.395 572.523
22.4586 569.991
22.5223 567.453
22.5859 564.91
22.6496 562.362
22.7132 559.81
22.7769 557.258
22.8405 554.701
22.9039 552.144
22.9676 549.587
23.0312 547.029
23.0949 544.472
23.1585 541.915
23.2222 539.363
23.2858 536.813
23.3495 534.265
23.4131 531.723
23.4765 529.185
23.5402 526.652
23.6038 524.127
23.6675 521.608
23.7311 519.096
23.7948 516.593
23.8584 514.099
23.9221 511.615
23.9855 509.14
24.0492 506.676
24.1128 504.225
24.1764 501.785
24.2401 499.357
24.3037 496.943
24.3674 494.544
24.431 492.159
24.4947 489.788
24.5581 487.435
24.6218 485.097
24.6854 482.775
24.7491 480.473
24.8127 478.188
24.8764 475.921
24.94 473.673
25.0036 471.445
25.0673 469.238
25.1307 467.05
25.1944 464.883
25.258 462.74
25.3217 460.618
25.3853 458.519
25.449 456.442
25.5126 454.388
25.5763 452.359
25.6397 450.354
25.7033 448.374
25.767 446.419
25.8306 444.49
25.8943 442.586
25.9579 440.71
26.0216 438.86
26.0852 437.036
26.1489 435.24
26.2123 433.471
26.2759 431.732
26.3396 430.02
26.4032 428.336
26.4669 426.682
26.5305 425.057
26.5942 423.46
26.6578 421.895
26.7215 420.358
26.7849 418.852
26.8486 417.375
26.9122 415.931
26.9758 414.517
27.0395 413.133
27.1031 411.78
27.1668 410.459
27.2304 409.169
27.2939 407.91
27.3575 406.682
27.4212 405.488
27.4848 404.324
27.5485 403.193
27.6121 402.093
27.6758 401.026
27.7394 399.991
27.803 398.987
27.8665 398.017
27.9301 397.078
27.9938 396.171
28.0574 395.296
28.1211 394.454
28.1847 393.645
28.2484 392.868
28.312 392.122
28.3757 391.409
28.4391 390.728
28.5027 390.08
28.5664 389.462
28.63 388.877
28.6937 388.324
28.7573 387.803
28.821 387.313
28.8846 386.855
28.948 386.428
29.0117 386.033
29.0753 385.668
29.139 385.335
29.2026 385.033
29.2663 384.762
29.3299 384.521
29.3936 384.311
29.4572 384.129
29.5207 383.98
29.5843 383.86
29.6479 383.769
29.7116 383.709
29.7752 383.678
29.8389 383.676
29.9025 383.704
29.9662 383.76
30.0298 383.844
30.0933 383.958
30.1569 384.099
30.2206 384.269
30.2842 384.466
30.3479 384.69
30.4115 384.943
30.4751 385.222
30.5388 385.528
30.6022 385.861
30.6659 386.22
30.7295 386.607
30.7932 387.018
30.8568 387.455
30.9205 387.919
30.9841 388.407
31.0478 388.921
31.1114 389.459
31.1748 390.022
31.2385 390.61
31.3021 391.221
31.3658 391.857
31.4294 392.516
31.4931 393.199
31.5567 393.905
31.6204 394.633
31.684 395.386
31.7474 396.161
31.8111 396.957
31.8747 397.777
31.9384 398.618
32.002 399.48
32.0657 400.363
32.1293 401.27
32.193 402.196
32.2564 403.143
32.3201 404.111
32.3837 405.099
32.4473 406.107
32.511 407.136
32.5746 408.185
32.6383 409.253
32.7019 410.34
32.7656 411.448
32.829 412.573
32.8927 413.718
32.9563 414.882
33.02 416.063
33.0836 417.263
33.1473 418.482
33.2109 419.719
33.2745 420.972
33.338 422.245
33.4016 423.533
33.4653 424.84
33.5289 426.164
33.5926 427.506
33.6562 428.863
33.7199 430.238
33.7835 431.628
33.8472 433.036
33.9106 434.458
33.9742 435.898
34.0379 437.354
34.1015 438.825
34.1652 440.312
34.2288 441.815
34.2925 443.334
34.3561 444.865
34.4198 446.416
34.4832 447.978
34.5468 449.555
34.6105 451.149
34.6741 452.757
34.7378 454.378
34.8014 456.014
34.8651 457.665
34.9287 459.33
34.9922 461.008
35.0558 462.699
35.1195 464.405
35.1831 466.124
35.2467 467.856
35.3104 469.601
35.374 471.361
35.4377 473.132
35.5013 474.917
35.5648 476.713
35.6284 478.524
35.6921 480.346
35.7557 482.18
35.8194 484.027
35.883 485.884
35.9467 487.754
36.0103 489.636
36.0739 491.528
36.1374 493.432
36.201 495.347
36.2647 497.273
36.3283 499.21
36.392 501.157
36.4556 503.114
36.5193 505.081
36.5829 507.059
36.6463 509.047
36.71 511.044
36.7736 513.049
36.8373 515.064
36.9009 517.088
36.9646 519.12
37.0282 521.162
37.0919 523.21
37.1555 525.266
37.2189 527.331
37.2826 529.403
37.3462 531.482
37.4099 533.566
37.4735 535.66
37.5372 537.758
37.6008 539.86
37.6645 541.971
37.7281 544.085
37.7916 546.206
37.8552 548.33
37.9189 550.461
37.9825 552.592
38.0461 554.729
38.1098 556.869
38.1734 559.011
38.2371 561.156
38.3005 563.304
38.3642 565.453
38.4278 567.603
38.4915 569.755
38.5551 571.907
38.6188 574.06
38.6824 576.21
38.7461 578.362
38.8097 580.512
38.8731 582.66
38.9368 584.807
39.0004 586.949
39.0641 589.089
39.1277 591.227
39.1914 593.361
39.255 595.489
39.3187 597.612
39.3823 599.73
39.4457 601.842
39.5094 603.947
39.573 606.046
39.6367 608.138
39.7003 610.219
39.764 612.293
39.8276 614.358
39.8913 616.413
39.9547 618.458
40.0183 620.492
40.082 622.514
40.1456 624.523
40.2093 626.521
40.2729 628.505
40.3366 630.475
40.4002 632.431
40.4639 634.371
40.5273 636.297
40.591 638.205
40.6546 640.098
40.7183 641.971
40.7819 643.827
40.8455 645.666
40.9092 647.484
40.9728 649.282
41.0365 651.059
41.0999 652.815
41.1636 654.551
41.2272 656.262
41.2909 657.952
41.3545 659.616
41.4182 661.258
41.4818 662.873
41.5455 664.464
41.6089 666.027
41.6725 667.564
41.7362 669.074
41.7998 670.557
41.8635 672.01
41.9271 673.433
41.9908 674.827
42.0544 676.19
42.1181 677.523
42.1815 678.823
42.2451 680.091
42.3088 681.327
42.3724 682.53
42.4361 683.697
42.4997 684.83
42.5634 685.929
42.627 686.991
42.6907 688.017
42.7541 689.007
42.8177 689.959
42.8814 690.874
42.945 691.75
43.0087 692.587
43.0723 693.386
43.136 694.143
43.1996 694.862
43.2631 695.539
43.3267 696.174
43.3904 696.769
43.454 697.322
43.5176 697.831
43.5813 698.299
43.6449 698.722
43.7086 699.103
43.7722 699.439
43.8357 699.731
43.8993 699.977
43.963 700.18
44.0266 700.337
44.0903 700.447
44.1539 700.512
44.2176 700.531
44.2812 700.504
44.3448 700.429
44.4083 700.308
44.4719 700.14
44.5356 699.923
44.5992 699.66
44.6629 699.349
44.7265 698.99
44.7902 698.584
44.8538 698.128
44.9172 697.624
44.9809 697.073
45.0445 696.474
45.1082 695.825
45.1718 695.128
45.2355 694.383
45.2991 693.588
45.3628 692.746
45.4264 691.857
45.4898 690.917
45.5535 689.93
45.6171 688.894
45.6808 687.81
45.7444 686.678
45.8081 685.498
45.8717 684.272
45.9354 682.995
45.999 681.674
46.0625 680.304
46.1261 678.888
46.1898 677.424
46.2534 675.915
46.317 674.358
46.3807 672.756
46.4443 671.109
46.508 669.415
46.5714 667.678
46.6351 665.895
46.6987 664.068
46.7624 662.198
46.826 660.283
46.8897 658.326
46.9533 656.326
47.017 654.282
47.0806 652.199
47.144 650.074
47.2077 647.906
47.2713 645.7
47.335 643.453
47.3986 641.168
47.4623 638.842
47.5259 636.48
47.5896 634.079
47.6532 631.641
47.7166 629.167
47.7803 626.657
47.8439 624.112
47.9076 621.531
47.9712 618.917
48.0349 616.27
48.0985 613.589
48.1622 610.876
48.2256 608.132
48.2892 605.357
48.3529 602.551
48.4165 599.717
48.4802 596.853
48.5438 593.963
48.6075 591.043
48.6711 588.099
48.7348 585.128
48.7982 582.132
48.8619 579.112
48.9255 576.068
48.9892 573
49.0528 569.912
49.1164 566.802
49.1801 563.671
49.2437 560.521
49.3074 557.351
49.3708 554.163
49.4345 550.958
49.4981 547.736
49.5618 544.498
49.6254 541.246
49.6891 537.978
49.7527 534.697
49.8164 531.404
49.8798 528.098
49.9434 524.782
50.0071 521.455
50.0707 518.119
50.1344 514.774
50.198 511.42
50.2617 508.059
50.3253 504.693
50.389 501.319
50.4524 497.942
50.516 494.559
50.5797 491.175
50.6433 487.788
50.707 484.397
50.7706 481.006
50.8343 477.615
50.8979 474.225
50.9616 470.836
51.025 467.448
51.0886 464.064
51.1523 460.682
51.2159 457.304
51.2796 453.931
51.3432 450.565
51.4069 447.204
51.4705 443.85
51.534 440.503
51.5976 437.165
51.6613 433.836
51.7249 430.516
51.7886 427.207
51.8522 423.909
51.9158 420.622
51.9795 417.348
52.0431 414.086
52.1066 410.837
52.1702 407.603
52.2339 404.383
52.2975 401.179
52.3612 397.991
52.4248 394.818
52.4885 391.663
52.5521 388.525
52.6158 385.406
52.6792 382.306
52.7428 379.224
52.8065 376.163
52.8701 373.121
52.9338 370.1
52.9974 367.101
53.0611 364.123
53.1247 361.168
53.1881 358.235
53.2518 355.324
53.3154 352.439
53.3791 349.577
53.4427 346.74
53.5064 343.927
53.57 341.139
53.6337 338.378
53.6973 335.643
53.7607 332.935
53.8244 330.253
53.888 327.599
53.9517 324.972
54.0153 322.375
54.079 319.805
54.1426 317.264
54.2063 314.752
54.2699 312.27
54.3334 309.818
54.397 307.396
54.4607 305.005
54.5243 302.645
54.5879 300.315
54.6516 298.018
54.7152 295.752
54.7789 293.518
54.8423 291.317
54.906 289.148
54.9696 287.013
55.0333 284.91
55.0969 282.841
55.1606 280.806
55.2242 278.806
55.2879 276.839
55.3515 274.907
55.4149 273.01
55.4786 271.148
55.5422 269.321
55.6059 267.53
55.6695 265.775
55.7332 264.056
55.7968 262.374
55.8605 260.728
55.9241 259.119
55.9875 257.547
56.0512 256.012
56.1148 254.514
56.1785 253.055
56.2421 251.634
56.3058 250.25
56.3694 248.906
56.4331 247.6
56.4965 246.333
56.5601 245.105
56.6238 243.916
56.6874 242.767
56.7511 241.658
56.8147 240.589
56.8784 239.561
56.942 238.573
57.0057 237.626
57.0691 236.72
57.1328 235.855
57.1964 235.031
57.2601 234.25
57.3237 233.51
57.3873 232.812
57.451 232.157
57.5146 231.545
57.5783 230.976
57.6417 230.45
57.7054 229.967
57.769 229.528
57.8327 229.133
57.8963 228.782
57.96 228.476
58.0236 228.214
58.0873 227.997
58.1507 227.826
58.2143 227.7
58.278 227.62
58.3416 227.585
58.4053 227.597
58.4689 227.655
58.5326 227.761
58.5962 227.913
58.6599 228.112
58.7233 228.359
58.7869 228.654
58.8506 228.997
58.9142 229.389
58.9779 229.829
59.0415 230.318
59.1052 230.856
59.1688 231.443
59.2325 232.08
59.2959 232.767
59.3595 233.504
59.4232 234.291
59.4868 235.13
59.5505 236.019
59.6141 236.96
59.6778 237.952
59.7414 238.995
59.8049 240.091
59.8685 241.238
59.9322 242.439
59.9958 243.691
60.0595 244.998
60.1231 246.356
60.1867 247.768
60.2504 249.234
60.314 250.752
60.3775 252.326
60.4411 253.953
60.5048 255.635
60.5684 257.37
60.6321 259.161
60.6957 261.006
60.7594 262.907
60.823 264.863
60.8867 266.873
60.9501 268.939
61.0137 271.061
61.0774 273.239
61.141 275.472
61.2047 277.761
61.2683 280.105
61.332 282.505
61.3956 284.962
61.459 287.475
61.5227 290.045
61.5863 292.669
61.65 295.35
61.7136 298.087
61.7773 300.881
61.8409 303.73
61.9046 306.636
61.9682 309.597
62.0317 312.614
62.0953 315.688
62.1589 318.816
62.2226 322.001
62.2862 325.24
62.3499 328.535
62.4135 331.885
62.4772 335.291
62.5408 338.75
62.6043 342.264
62.6679 345.833
62.7316 349.455
62.7952 353.131
62.8589 356.86
62.9225 360.643
62.9861 364.478
63.0498 368.365
63.1132 372.305
63.1769 376.296
63.2405 380.337
63.3042 384.431
63.3678 388.574
63.4315 392.766
63.4951 397.008
63.5588 401.3
63.6224 405.638
63.6858 410.025
63.7495 414.459
63.8131 418.939
63.8768 423.465
63.9404 428.036
64.0041 432.652
64.0677 437.311
64.1314 442.013
64.195 446.758
64.2584 451.545
64.3221 456.371
64.3857 461.239
64.4494 466.144
64.513 471.09
64.5767 476.071
64.6403 481.089
64.704 486.143
64.7674 491.231
64.8311 496.354
64.8947 501.51
64.9583 506.696
65.022 511.914
65.0856 517.162
65.1493 522.437
65.2129 527.74
65.2766 533.069
65.34 538.424
65.4037 543.803
65.4673 549.205
65.531 554.629
65.5946 560.074
65.6582 565.538
65.7219 571.02
65.7855 576.518
65.849 582.031
65.9126 587.561
65.9763 593.104
66.0399 598.657
66.1036 604.221
66.1672 609.794
66.2309 615.373
66.2945 620.961
66.3582 626.553
66.4216 632.148
66.4852 637.745
66.5489 643.343
66.6125 648.939
66.6762 654.534
66.7398 660.126
66.8035 665.71
66.8671 671.29
66.9308 676.861
66.9942 682.421
67.0578 687.97
67.1215 693.506
67.1851 699.029
67.2488 704.535
67.3124 710.024
67.3761 715.494
67.4397 720.943
67.5032 726.371
67.5668 731.774
67.6304 737.152
67.6941 742.503
67.7577 747.827
67.8214 753.12
67.885 758.382
67.9487 763.61
68.0123 768.803
68.0758 773.961
68.1394 779.081
68.2031 784.161
68.2667 789.2
68.3304 794.197
68.394 799.151
68.4576 804.058
68.5213 808.918
68.5849 813.73
68.6484 818.491
68.712 823.201
68.7757 827.858
68.8393 832.458
68.903 837.005
68.9666 841.493
69.0303 845.922
69.0939 850.291
69.1573 854.598
69.221 858.841
69.2846 863.018
69.3483 867.131
69.4119 871.177
69.4756 875.152
69.5392 879.058
69.6029 882.892
69.6665 886.653
69.7299 890.341
69.7936 893.952
69.8572 897.487
69.9209 900.946
69.9845 904.323
70.0482 907.622
70.1118 910.838
70.1755 913.973
70.2391 917.024
70.3026 919.989
70.3662 922.871
70.4298 925.665
70.4935 928.371
70.5571 930.989
70.6208 933.516
70.6844 935.954
70.7481 938.3
70.8115 940.553
70.8752 942.713
70.9388 944.781
71.0025 946.752
71.0661 948.628
71.1298 950.408
71.1934 952.091
71.257 953.678
71.3207 955.165
71.3841 956.554
71.4478 957.844
71.5114 959.032
71.5751 960.122
71.6387 961.112
71.7024 961.998
71.766 962.786
71.8297 963.469
71.8933 964.051
71.9567 964.53
72.0204 964.907
72.084 965.179
72.1477 965.351
72.2113 965.417
72.275 965.38
72.3386 965.241
72.4023 964.996
72.4657 964.649
72.5293 964.197
72.593 963.644
72.6566 962.985
72.7203 962.223
72.7839 961.359
72.8476 960.392
72.9112 959.32
72.9749 958.147
73.0383 956.871
73.102 955.494
73.1656 954.015
73.2292 952.434
73.2929 950.754
73.3565 948.973
73.4202 947.092
73.4838 945.112
73.5475 943.033
73.6109 940.855
73.6746 938.581
73.7382 936.209
73.8019 933.741
73.8655 931.179
73.9292 928.519
73.9928 925.768
74.0564 922.922
74.1199 919.985
74.1835 916.955
74.2472 913.835
74.3108 910.626
74.3745 907.327
74.4381 903.943
74.5018 900.469
74.5654 896.91
74.6291 893.266
74.6925 889.54
74.7561 885.73
74.8198 881.84
74.8834 877.868
74.9471 873.818
75.0107 869.689
75.0744 865.483
75.138 861.203
75.2017 856.847
75.2651 852.419
75.3287 847.92
75.3924 843.349
75.456 838.71
75.5197 834.004
75.5833 829.231
75.647 824.392
75.7106 819.49
75.7741 814.526
75.8377 809.501
75.9014 804.417
75.965 799.273
76.0286 794.076
76.0923 788.822
76.1559 783.515
76.2196 778.155
76.2832 772.746
76.3467 767.286
76.4103 761.782
76.474 756.229
76.5376 750.632
76.6013 744.992
76.6649 739.312
76.7286 733.592
76.7922 727.833
76.8558 722.038
76.9193 716.207
76.9829 710.344
77.0466 704.448
77.1102 698.521
77.1739 692.566
77.2375 686.584
77.3012 680.576
77.3648 674.544
77.4282 668.488
77.4919 662.413
77.5555 656.315
77.6192 650.204
77.6828 644.074
77.7465 637.928
77.8101 631.77
77.8738 625.601
77.9374 619.421
78.0008 613.232
78.0645 607.035
78.1281 600.834
78.1918 594.628
78.2554 588.419
78.3191 582.209
78.3827 575.997
78.4464 569.789
78.51 563.583
78.5735 557.383
78.6371 551.188
78.7007 544.998
78.7644 538.818
78.828 532.649
78.8917 526.491
78.9553 520.344
79.019 514.212
79.0824 508.095
79.1461 501.996
79.2097 495.914
79.2734 489.85
79.337 483.808
79.4007 477.786
79.4643 471.788
79.5279 465.812
79.5916 459.861
79.655 453.939
79.7187 448.041
79.7823 442.173
79.846 436.334
79.9096 430.527
79.9733 424.75
80.0369 419.006
80.1006 413.295
80.1642 407.62
80.2276 401.979
80.2913 396.376
80.3549 390.81
80.4186 385.282
80.4822 379.794
80.5459 374.345
80.6095 368.937
80.6732 363.571
80.7366 358.246
80.8002 352.966
80.8639 347.73
80.9275 342.538
80.9912 337.392
81.0548 332.291
81.1185 327.238
81.1821 322.231
81.2458 317.273
81.3092 312.363
81.3729 307.502
81.4365 302.692
81.5001 297.931
81.5638 293.22
81.6274 288.561
81.6911 283.955
81.7547 279.399
81.8184 274.897
81.8818 270.447
81.9455 266.05
82.0091 261.707
82.0728 257.419
82.1364 253.184
82.2001 249.004
82.2637 244.879
82.3273 240.809
82.3908 236.795
82.4544 232.835
82.5181 228.932
82.5817 225.085
82.6454 221.293
82.709 217.559
82.7727 213.88
82.8363 210.258
82.9 206.692
82.9634 203.183
83.027 199.731
83.0907 196.336
83.1543 192.997
83.218 189.715
83.2816 186.49
83.3453 183.321
83.4089 180.209
83.4726 177.154
83.536 174.156
83.5996 171.214
83.6633 168.328
83.7269 165.499
83.7906 162.726
83.8542 160.009
83.9179 157.348
83.9815 154.743
84.045 152.194
84.1086 149.699
84.1723 147.26
84.2359 144.876
84.2995 142.547
84.3632 140.273
84.4268 138.052
84.4905 135.887
84.5541 133.774
84.6176 131.716
84.6812 129.711
84.7449 127.759
84.8085 125.86
84.8722 124.013
84.9358 122.219
84.9995 120.477
85.0631 118.786
85.1267 117.147
85.1902 115.559
85.2538 114.021
85.3175 112.534
85.3811 111.097
85.4448 109.71
85.5084 108.373
85.5721 107.084
85.6357 105.844
85.6991 104.653
85.7628 103.51
85.8264 102.414
85.8901 101.367
85.9537 100.365
86.0174 99.4113
86.081 98.5035
86.1447 97.6417
86.2083 96.8256
86.2717 96.0548
86.3354 95.3291
86.399 94.6479
86.4627 94.0112
86.5263 93.4183
86.59 92.8691
86.6536 92.363
86.7173 91.9
86.7809 91.4796
86.8444 91.1015
86.908 90.7653
86.9717 90.4706
87.0353 90.2173
87.0989 90.0049
87.1626 89.8331
87.2262 89.7016
87.2899 89.6102
87.3533 89.5584
87.417 89.546
87.4806 89.5727
87.5443 89.6381
87.6079 89.742
87.6716 89.8841
87.7352 90.0641
87.7989 90.2817
87.8625 90.5366
87.9259 90.8286
87.9896 91.1573
88.0532 91.5225
88.1169 91.924
88.1805 92.3615
88.2442 92.8347
88.3078 93.3435
88.3715 93.8874
88.4351 94.4663
88.4985 95.0802
88.5622 95.7284
88.6258 96.4108
88.6895 97.1275
88.7531 97.878
88.8168 98.6621
88.8804 99.4797
88.9441 100.331
89.0075 101.214
89.0711 102.131
89.1348 103.08
89.1984 104.062
89.2621 105.076
89.3257 106.122
89.3894 107.2
89.453 108.31
89.5167 109.452
89.5801 110.624
89.6438 111.828
89.7074 113.063
89.771 114.329
89.8347 115.626
89.8983 116.953
89.962 118.311
90.0256 119.699
90.0893 121.117
90.1527 122.565
90.2164 124.043
90.28 125.551
90.3437 127.088
90.4073 128.655
90.471 130.251
90.5346 131.876
90.5982 133.53
90.6617 135.213
90.7253 136.925
90.789 138.665
90.8526 140.434
90.9163 142.231
90.9799 144.057
91.0436 145.91
91.1072 147.792
91.1709 149.701
91.2343 151.638
91.2979 153.602
91.3616 155.594
91.4252 157.612
91.4889 159.658
91.5525 161.731
91.6162 163.831
91.6798 165.956
91.7435 168.109
91.8069 170.288
91.8705 172.493
91.9342 174.723
91.9978 176.98
92.0615 179.262
92.1251 181.569
92.1888 183.903
92.2524 186.259
92.3159 188.642
92.3795 191.049
92.4432 193.48
92.5068 195.936
92.5704 198.416
92.6341 200.919
92.6977 203.446
92.7614 205.995
92.825 208.569
92.8885 211.165
92.9521 213.783
93.0158 216.423
93.0794 219.085
93.1431 221.769
93.2067 224.476
93.2704 227.202
93.334 229.95
93.3976 232.717
93.4611 235.506
93.5247 238.313
93.5884 241.141
93.652 243.988
93.7157 246.853
93.7793 249.737
93.843 252.639
93.9066 255.559
93.97 258.497
94.0337 261.451
94.0973 264.422
94.161 267.409
94.2246 270.412
94.2883 273.43
94.3519 276.463
94.4156 279.511
94.4792 282.572
94.5426 285.647
94.6063 288.736
94.6699 291.837
94.7336 294.95
94.7972 298.075
94.8609 301.211
94.9245 304.357
94.9882 307.514
95.0518 310.68
95.1153 313.856
95.1789 317.039
95.2426 320.231
95.3062 323.43
95.3698 326.637
95.4335 329.849
95.4971 333.067
95.5608 336.29
95.6242 339.518
95.6879 342.75
95.7515 345.985
95.8152 349.223
95.8788 352.462
95.9425 355.704
96.0061 358.945
96.0698 362.188
96.1334 365.43
96.1968 368.671
96.2605 371.909
96.3241 375.146
96.3878 378.379
96.4514 381.608
96.5151 384.833
96.5787 388.053
96.6424 391.267
96.706 394.475
96.7694 397.675
96.8331 400.867
96.8967 404.05
96.9604 407.225
97.024 410.389
97.0877 413.542
97.1513 416.685
97.215 419.814
97.2784 422.931
97.342 426.034
97.4057 429.123
97.4693 432.197
97.533 435.255
97.5966 438.297
97.6603 441.321
97.7239 444.327
97.7876 447.315
97.851 450.283
97.9147 453.232
97.9783 456.159
98.042 459.066
98.1056 461.949
98.1692 464.81
98.2329 467.648
98.2965 470.46
98.36 473.248
98.4236 476.011
98.4873 478.746
98.5509 481.456
98.6146 484.136
98.6782 486.789
98.7419 489.413
98.8055 492.007
98.8692 494.571
98.9326 497.104
98.9962 499.605
99.0599 502.074
99.1235 504.51
99.1872 506.913
99.2508 509.281
99.3145 511.616
99.3781 513.914
99.4418 516.177
99.5052 518.404
99.5688 520.593
99.6325 522.746
99.6961 524.861
99.7598 526.936
99.8234 528.974
99.8871 530.971
99.9507 532.929
100.014 534.846
100.078 536.723
100.141 538.557
100.205 540.351
100.269 542.102
100.332 543.812
100.396 545.477
100.46 547.1
100.523 548.679
100.587 550.214
100.65 551.705
100.714 553.151
100.778 554.553
100.841 555.909
100.905 557.22
100.969 558.485
101.032 559.705
101.096 560.879
101.159 562.005
101.223 563.086
101.287 564.12
101.35 565.107
101.414 566.048
101.478 566.942
101.541 567.789
101.605 568.588
101.668 569.341
101.732 570.046
101.796 570.704
101.859 571.314
101.923 571.878
101.987 572.394
102.05 572.865
102.114 573.287
102.178 573.663
102.241 573.991
102.305 574.274
102.368 574.51
102.432 574.699
102.496 574.843
102.559 574.94
102.623 574.993
102.686 574.999
102.75 574.96
102.814 574.877
102.877 574.748
102.941 574.576
103.004 574.359
103.068 574.1
103.132 573.797
103.195 573.451
103.259 573.062
103.323 572.633
103.386 572.16
103.45 571.648
103.513 571.094
103.577 570.5
103.641 569.868
103.704 569.195
103.768 568.484
103.832 567.735
103.895 566.949
103.959 566.126
104.022 565.266
104.086 564.372
104.15 563.441
104.213 562.477
104.277 561.479
104.341 560.448
104.404 559.384
104.468 558.289
104.531 557.163
104.595 556.006
104.659 554.82
104.722 553.605
104.786 552.363
104.85 551.093
104.913 549.797
104.977 548.474
105.04 547.127
105.104 545.755
105.168 544.361
105.231 542.943
105.295 541.505
105.359 540.045
105.422 538.565
105.486 537.065
105.549 535.548
105.613 534.014
105.677 532.462
105.74 530.895
105.804 529.313
105.868 527.716
105.931 526.106
105.995 524.485
106.058 522.852
106.122 521.208
106.186 519.555
106.249 517.893
106.313 516.223
106.377 514.546
106.44 512.863
106.504 511.175
106.567 509.483
106.631 507.786
106.695 506.087
106.758 504.387
106.822 502.685
106.885 500.984
106.949 499.283
107.013 497.584
107.076 495.888
107.14 494.195
107.203 492.506
107.267 490.823
107.331 489.145
107.394 487.474
107.458 485.81
107.522 484.155
107.585 482.508
107.649 480.872
107.713 479.246
107.776 477.632
107.84 476.029
107.903 474.44
107.967 472.864
108.031 471.303
108.094 469.756
108.158 468.225
108.222 466.711
108.285 465.213
108.349 463.734
108.412 462.272
108.476 460.83
108.54 459.407
108.603 458.005
108.667 456.622
108.731 455.261
108.794 453.922
108.858 452.606
108.921 451.312
108.985 450.041
109.049 448.795
109.112 447.572
109.176 446.374
109.24 445.202
109.303 444.054
109.367 442.933
109.43 441.838
109.494 440.77
109.558 439.728
109.621 438.714
109.685 437.727
109.749 436.768
109.812 435.837
109.876 434.935
109.939 434.06
110.003 433.214
110.067 432.397
110.13 431.609
110.194 430.851
110.257 430.121
110.321 429.421
110.385 428.749
110.448 428.107
110.512 427.495
110.575 426.913
110.639 426.359
110.703 425.835
110.766 425.34
110.83 424.873
110.894 424.437
110.957 424.029
111.021 423.65
111.084 423.3
111.148 422.978
111.212 422.684
111.275 422.418
111.339 422.18
111.403 421.97
111.466 421.787
111.53 421.63
111.593 421.5
111.657 421.397
111.721 421.319
111.784 421.266
111.848 421.239
111.912 421.237
111.975 421.259
112.039 421.305
112.103 421.374
112.166 421.465
112.23 421.579
112.293 421.715
112.357 421.873
112.421 422.05
112.484 422.248
112.548 422.465
112.612 422.702
112.675 422.956
112.739 423.229
112.802 423.518
112.866 423.824
112.93 424.146
112.993 424.482
113.057 424.833
113.121 425.197
113.184 425.575
113.248 425.965
113.311 426.366
113.375 426.778
113.439 427.2
113.502 427.63
113.566 428.07
113.629 428.516
113.693 428.971
113.757 429.429
113.82 429.895
113.884 430.364
113.947 430.837
114.011 431.312
114.075 431.79
114.138 432.268
114.202 432.747
114.266 433.224
114.329 433.702
114.393 434.176
114.456 434.647
114.52 435.114
114.584 435.576
114.647 436.033
114.711 436.482
114.775 436.925
114.838 437.359
114.902 437.783
114.965 438.198
115.029 438.602
115.093 438.994
115.156 439.374
115.22 439.74
115.284 440.092
115.347 440.43
115.411 440.75
115.474 441.055
115.538 441.342
115.602 441.611
115.665 441.86
115.729 442.09
115.793 442.298
115.856 442.486
115.92 442.652
115.984 442.794
116.047 442.912
116.111 443.007
116.174 443.077
116.238 443.119
116.302 443.137
116.365 443.126
116.429 443.088
116.493 443.021
116.556 442.925
116.62 442.8
116.683 442.643
116.747 442.456
116.811 442.237
116.874 441.986
116.938 441.702
117.001 441.386
117.065 441.035
117.129 440.65
117.192 440.231
117.256 439.776
117.32 439.285
117.383 438.759
117.447 438.196
117.51 437.596
117.574 436.959
117.638 436.284
117.701 435.571
117.765 434.821
117.828 434.031
117.892 433.203
117.956 432.336
118.019 431.43
118.083 430.483
118.147 429.498
118.21 428.472
118.274 427.407
118.337 426.301
118.401 425.156
118.465 423.969
118.528 422.743
118.592 421.477
118.656 420.17
118.719 418.822
118.783 417.434
118.846 416.006
118.91 414.538
118.974 413.03
119.037 411.482
119.101 409.894
119.165 408.266
119.228 406.599
119.292 404.893
119.355 403.147
119.419 401.363
119.483 399.54
119.546 397.68
119.61 395.781
119.674 393.844
119.737 391.871
119.801 389.86
119.864 387.814
119.928 385.731
119.992 383.614
120.055 381.46
120.119 379.274
120.183 377.052
120.246 374.797
120.31 372.509
120.373 370.188
120.437 367.837
120.501 365.454
120.564 363.04
120.628 360.596
120.692 358.124
120.755 355.623
120.819 353.094
120.882 350.538
120.946 347.956
121.01 345.348
121.073 342.714
121.137 340.058
121.2 337.378
121.264 334.675
121.328 331.952
121.391 329.207
121.455 326.442
121.518 323.659
121.582 320.857
121.646 318.038
121.709 315.202
121.773 312.353
121.837 309.488
121.9 306.608
121.964 303.718
122.028 300.815
122.091 297.902
122.155 294.98
122.218 292.048
122.282 289.109
122.346 286.164
122.409 283.213
122.473 280.256
122.537 277.297
122.6 274.336
122.664 271.373
122.727 268.41
122.791 265.447
122.855 262.486
122.918 259.527
122.982 256.572
123.046 253.623
123.109 250.68
123.173 247.743
123.236 244.814
123.3 241.895
123.364 238.986
123.427 236.088
123.491 233.203
123.555 230.331
123.618 227.473
123.682 224.631
123.745 221.806
123.809 218.998
123.873 216.208
123.936 213.438
124 210.689
124.064 207.962
124.127 205.257
124.191 202.576
124.254 199.921
124.318 197.29
124.382 194.685
124.445 192.109
124.509 189.562
124.572 187.044
124.636 184.556
124.7 182.1
124.763 179.676
124.827 177.285
124.891 174.929
124.954 172.607
125.018 170.321
125.081 168.072
125.145 165.861
125.209 163.687
125.272 161.553
125.336 159.459
125.399 157.405
125.463 155.392
125.527 153.422
125.59 151.495
125.654 149.611
125.718 147.771
125.781 145.976
125.845 144.227
125.909 142.523
125.972 140.867
126.036 139.257
126.099 137.696
126.163 136.183
126.227 134.719
126.29 133.304
126.354 131.938
126.418 130.624
126.481 129.359
126.545 128.146
126.608 126.985
126.672 125.875
126.736 124.817
126.799 123.812
126.863 122.86
126.927 121.961
126.99 121.114
127.054 120.322
127.117 119.583
127.181 118.898
127.245 118.267
127.308 117.69
127.372 117.167
127.436 116.699
127.499 116.284
127.563 115.924
127.626 115.619
127.69 115.368
127.754 115.171
127.817 115.028
127.881 114.939
127.944 114.904
128.008 114.923
128.072 114.996
128.135 115.122
128.199 115.301
128.263 115.534
128.326 115.819
128.39 116.156
128.453 116.546
128.517 116.987
128.581 117.48
128.644 118.023
128.708 118.618
128.771 119.262
128.835 119.956
128.899 120.7
128.962 121.492
129.026 122.332
129.09 123.22
129.153 124.156
129.217 125.138
129.28 126.166
129.344 127.239
129.408 128.357
129.471 129.519
129.535 130.725
129.599 131.973
129.662 133.264
129.726 134.595
129.789 135.967
129.853 137.379
129.917 138.83
129.98 140.32
130.044 141.846
130.108 143.409
130.171 145.009
130.235 146.643
130.299 148.311
130.362 150.012
130.426 151.745
130.489 153.511
130.553 155.307
130.617 157.132
130.68 158.985
130.744 160.867
130.808 162.776
130.871 164.71
130.935 166.669
130.998 168.652
131.062 170.658
131.126 172.687
131.189 174.736
131.253 176.805
131.316 178.893
131.38 181
131.444 183.123
131.507 185.263
131.571 187.417
131.635 189.585
131.698 191.767
131.762 193.96
131.825 196.164
131.889 198.379
131.953 200.602
132.016 202.834
132.08 205.073
132.143 207.319
132.207 209.568
132.271 211.822
132.334 214.079
132.398 216.338
132.462 218.599
132.525 220.86
132.589 223.12
132.652 225.379
132.716 227.635
132.78 229.888
132.843 232.136
132.907 234.379
132.971 236.616
133.034 238.847
133.098 241.069
133.161 243.283
133.225 245.488
133.289 247.681
133.352 249.865
133.416 252.036
133.48 254.194
133.543 256.34
133.607 258.472
133.67 260.588
133.734 262.69
133.798 264.774
133.861 266.843
133.925 268.893
133.989 270.926
134.052 272.941
134.116 274.936
134.179 276.912
134.243 278.867
134.307 280.802
134.37 282.716
134.434 284.607
134.498 286.477
134.561 288.324
134.625 290.148
134.689 291.949
134.752 293.726
134.816 295.48
134.879 297.21
134.943 298.915
135.007 300.595
135.07 302.25
135.134 303.881
135.197 305.486
135.261 307.066
135.325 308.619
135.388 310.148
135.452 311.652
135.515 313.129
135.579 314.581
135.643 316.007
135.706 317.408
135.77 318.783
135.834 320.133
135.897 321.457
135.961 322.756
136.024 324.031
136.088 325.281
136.152 326.507
136.215 327.708
136.279 328.887
136.343 330.04
136.406 331.171
136.47 332.279
136.533 333.365
136.597 334.428
136.661 335.47
136.724 336.492
136.788 337.492
136.852 338.472
136.915 339.433
136.979 340.374
137.042 341.298
137.106 342.204
137.17 343.093
137.233 343.965
137.297 344.822
137.361 345.663
137.424 346.49
137.488 347.305
137.551 348.105
137.615 348.894
137.679 349.672
137.742 350.44
137.806 351.197
137.87 351.947
137.933 352.688
137.997 353.423
138.06 354.151
138.124 354.875
138.188 355.595
138.251 356.312
138.315 357.026
138.379 357.74
138.442 358.453
138.506 359.167
138.569 359.884
138.633 360.603
138.697 361.326
138.76 362.054
138.824 362.788
138.887 363.53
138.951 364.279
139.015 365.039
139.078 365.808
139.142 366.589
139.206 367.382
139.269 368.19
139.333 369.012
139.396 369.85
139.46 370.706
139.524 371.58
139.587 372.472
139.651 373.385
139.714 374.32
139.778 375.277
139.842 376.258
139.905 377.264
139.969 378.297
140.033 379.355
140.096 380.442
140.16 381.558
140.224 382.704
140.287 383.882
140.351 385.092
140.414 386.335
140.478 387.613
140.542 388.927
140.605 390.276
140.669 391.663
140.733 393.089
140.796 394.554
140.86 396.06
140.923 397.605
140.987 399.195
141.051 400.826
141.114 402.501
141.178 404.222
141.242 405.989
141.305 407.802
141.369 409.662
141.432 411.57
141.496 413.527
141.56 415.534
141.623 417.59
141.687 419.699
141.751 421.858
141.814 424.07
141.878 426.334
141.941 428.652
142.005 431.024
142.069 433.451
142.132 435.933
142.196 438.47
142.26 441.063
142.323 443.713
142.387 446.42
142.45 449.184
142.514 452.005
142.578 454.885
142.641 457.822
142.705 460.818
142.768 463.872
142.832 466.985
142.896 470.157
142.959 473.387
143.023 476.677
143.086 480.026
143.15 483.434
143.214 486.901
143.277 490.427
143.341 494.013
143.405 497.657
143.468 501.358
143.532 505.12
143.595 508.939
143.659 512.817
143.723 516.752
143.786 520.745
143.85 524.793
143.914 528.9
143.977 533.062
144.041 537.279
144.104 541.553
144.168 545.881
144.232 550.262
144.295 554.699
144.359 559.186
144.423 563.727
144.486 568.318
144.55 572.963
144.614 577.655
144.677 582.397
144.741 587.188
144.804 592.027
144.868 596.911
144.932 601.841
144.995 606.816
145.059 611.836
145.123 616.898
145.186 622.003
145.25 627.147
145.313 632.331
145.377 637.554
145.441 642.813
145.504 648.11
145.568 653.441
145.632 658.806
145.695 664.202
145.759 669.632
145.822 675.09
145.886 680.577
145.95 686.091
146.013 691.63
146.077 697.196
146.14 702.781
146.204 708.39
146.268 714.02
146.331 719.668
146.395 725.334
146.458 731.014
146.522 736.709
146.586 742.416
146.649 748.135
146.713 753.863
146.777 759.6
146.84 765.342
146.904 771.089
146.967 776.84
147.031 782.592
147.095 788.344
147.158 794.093
147.222 799.839
147.286 805.582
147.349 811.317
147.413 817.042
147.476 822.761
147.54 828.465
147.604 834.157
147.667 839.834
147.731 845.493
147.795 851.134
147.858 856.757
147.922 862.355
147.985 867.932
148.049 873.483
148.113 879.009
148.176 884.505
148.24 889.971
148.304 895.407
148.367 900.808
148.431 906.175
148.495 911.506
148.558 916.798
148.622 922.05
148.685 927.262
148.749 932.432
148.813 937.556
148.876 942.634
148.94 947.667
149.004 952.649
149.067 957.582
149.131 962.462
149.194 967.289
149.258 972.062
149.322 976.779
149.385 981.439
149.449 986.039
149.512 990.58
149.576 995.06
149.64 999.477
149.703 1003.83
149.767 1008.12
149.831 1012.34
149.894 1016.49
149.958 1020.58
150.021 1024.59
150.085 1028.54
150.149 1032.41
150.212 1036.21
150.276 1039.93
150.339 1043.59
150.403 1047.16
150.467 1050.66
150.53 1054.08
150.594 1057.42
150.658 1060.68
150.721 1063.86
150.785 1066.96
150.848 1069.98
150.912 1072.92
150.976 1075.78
151.039 1078.55
151.103 1081.23
151.167 1083.83
151.23 1086.35
151.294 1088.78
151.357 1091.13
151.421 1093.38
151.485 1095.56
151.548 1097.64
151.612 1099.64
151.676 1101.55
151.739 1103.37
151.803 1105.11
151.866 1106.75
151.93 1108.31
151.994 1109.78
152.057 1111.16
152.121 1112.45
152.185 1113.65
152.248 1114.77
152.312 1115.8
152.375 1116.74
152.439 1117.59
152.503 1118.35
152.566 1119.03
152.63 1119.62
152.694 1120.13
152.757 1120.54
152.821 1120.88
152.884 1121.12
152.948 1121.29
153.012 1121.37
153.075 1121.36
153.139 1121.27
153.203 1121.1
153.266 1120.85
153.33 1120.51
153.393 1120.1
153.457 1119.61
153.521 1119.03
153.584 1118.38
153.648 1117.66
153.711 1116.85
153.775 1115.97
153.839 1115.02
153.902 1113.99
153.966 1112.89
154.029 1111.72
154.093 1110.48
154.157 1109.17
154.22 1107.79
154.284 1106.34
154.348 1104.83
154.411 1103.25
154.475 1101.61
154.539 1099.91
154.602 1098.15
154.666 1096.32
154.729 1094.44
154.793 1092.5
154.857 1090.51
154.92 1088.46
154.984 1086.35
155.048 1084.2
155.111 1081.99
155.175 1079.74
155.238 1077.44
155.302 1075.09
155.366 1072.69
155.429 1070.26
155.493 1067.78
155.557 1065.26
155.62 1062.7
155.684 1060.11
155.747 1057.48
155.811 1054.81
155.875 1052.11
155.938 1049.39
156.002 1046.63
156.066 1043.84
156.129 1041.03
156.193 1038.19
156.256 1035.33
156.32 1032.44
156.384 1029.54
156.447 1026.61
156.511 1023.67
156.575 1020.72
156.638 1017.75
156.702 1014.76
156.765 1011.77
156.829 1008.76
156.893 1005.75
156.956 1002.73
157.02 999.707
157.083 996.681
157.147 993.651
157.211 990.621
157.274 987.592
157.338 984.565
157.401 981.543
157.465 978.525
157.529 975.514
157.592 972.512
157.656 969.519
157.72 966.538
157.783 963.569
157.847 960.612
157.91 957.672
157.974 954.748
158.038 951.841
158.101 948.955
158.165 946.088
158.229 943.244
158.292 940.421
158.356 937.624
158.42 934.85
158.483 932.104
158.547 929.385
158.61 926.695
158.674 924.036
158.738 921.407
158.801 918.81
158.865 916.246
158.929 913.715
158.992 911.222
159.056 908.764
159.119 906.343
159.183 903.959
159.247 901.615
159.31 899.31
159.374 897.047
159.438 894.825
159.501 892.645
159.565 890.507
159.628 888.414
159.692 886.365
159.756 884.363
159.819 882.404
159.883 880.493
159.947 878.628
160.01 876.812
160.074 875.043
160.137 873.323
160.201 871.654
160.265 870.032
160.328 868.46
160.392 866.941
160.455 865.47
160.519 864.052
160.583 862.686
160.646 861.37
160.71 860.108
160.774 858.896
160.837 857.737
160.901 856.633
160.964 855.58
161.028 854.579
161.092 853.633
161.155 852.739
161.219 851.897
161.282 851.111
161.346 850.375
161.41 849.694
161.473 849.064
161.537 848.488
161.601 847.965
161.664 847.494
161.728 847.075
161.791 846.709
161.855 846.394
161.919 846.131
161.982 845.919
162.046 845.758
162.11 845.647
162.173 845.587
162.237 845.576
162.3 845.614
162.364 845.704
162.428 845.839
162.491 846.023
162.555 846.254
162.619 846.533
162.682 846.858
162.746 847.229
162.81 847.645
162.873 848.105
162.937 848.609
163 849.157
163.064 849.747
163.128 850.379
163.191 851.051
163.255 851.765
163.319 852.517
163.382 853.309
163.446 854.139
163.509 855.005
163.573 855.908
163.637 856.846
163.7 857.82
163.764 858.826
163.827 859.866
163.891 860.938
163.955 862.041
164.018 863.172
164.082 864.335
164.146 865.524
164.209 866.743
164.273 867.986
164.336 869.254
164.4 870.548
164.464 871.864
164.527 873.203
164.591 874.562
164.654 875.943
164.718 877.342
164.782 878.758
164.845 880.191
164.909 881.642
164.973 883.106
165.036 884.585
165.1 886.075
165.163 887.579
165.227 889.092
165.291 890.614
165.354 892.145
165.418 893.683
165.482 895.227
165.545 896.776
165.609 898.329
165.672 899.887
165.736 901.445
165.8 903.003
165.863 904.561
165.927 906.117
165.991 907.671
166.054 909.221
166.118 910.767
166.181 912.307
166.245 913.839
166.309 915.363
166.372 916.879
166.436 918.385
166.5 919.879
166.563 921.36
166.627 922.828
166.69 924.283
166.754 925.722
166.818 927.142
166.881 928.548
166.945 929.935
167.009 931.302
167.072 932.648
167.136 933.974
167.2 935.277
167.263 936.557
167.327 937.812
167.39 939.042
167.454 940.247
167.518 941.424
167.581 942.574
167.645 943.695
167.708 944.785
167.772 945.846
167.836 946.876
167.899 947.873
167.963 948.838
168.026 949.768
168.09 950.665
168.154 951.525
168.217 952.351
168.281 953.138
168.345 953.89
168.408 954.603
168.472 955.276
168.535 955.91
168.599 956.504
168.663 957.058
168.726 957.571
168.79 958.041
168.854 958.469
168.917 958.853
168.981 959.194
169.044 959.491
169.108 959.743
169.172 959.95
169.235 960.111
169.299 960.225
169.363 960.296
169.426 960.317
169.49 960.292
169.553 960.219
169.617 960.097
169.681 959.927
169.744 959.709
169.808 959.442
169.872 959.126
169.935 958.761
169.999 958.346
170.062 957.881
170.126 957.366
170.19 956.8
170.253 956.184
170.317 955.518
170.381 954.801
170.444 954.033
170.508 953.216
170.571 952.346
170.635 951.426
170.699 950.456
170.762 949.435
170.826 948.362
170.89 947.239
170.953 946.067
171.017 944.842
171.08 943.567
171.144 942.242
171.208 940.868
171.271 939.441
171.335 937.967
171.398 936.442
171.462 934.869
171.526 933.245
171.589 931.575
171.653 929.855
171.717 928.087
171.78 926.27
171.844 924.407
171.907 922.496
171.971 920.538
172.035 918.533
172.098 916.483
172.162 914.388
172.225 912.247
172.289 910.061
172.353 907.83
172.416 905.556
172.48 903.24
172.544 900.881
172.607 898.479
172.671 896.036
172.735 893.552
172.798 891.028
172.862 888.463
172.925 885.859
172.989 883.217
173.053 880.538
173.116 877.821
173.18 875.066
173.244 872.277
173.307 869.451
173.371 866.592
173.434 863.699
173.498 860.773
173.562 857.814
173.625 854.823
173.689 851.801
173.753 848.751
173.816 845.67
173.88 842.561
173.943 839.423
174.007 836.26
174.071 833.07
174.134 829.855
174.198 826.616
174.262 823.352
174.325 820.067
174.389 816.76
174.452 813.43
174.516 810.081
174.58 806.712
174.643 803.325
174.707 799.92
174.771 796.499
174.834 793.062
174.898 789.61
174.961 786.144
175.025 782.663
175.089 779.171
175.152 775.67
175.216 772.155
175.279 768.632
175.343 765.1
175.407 761.559
175.47 758.013
175.534 754.459
175.597 750.901
175.661 747.338
175.725 743.772
175.788 740.205
175.852 736.634
175.916 733.064
175.979 729.493
176.043 725.924
176.106 722.355
176.17 718.791
176.234 715.23
176.297 711.673
176.361 708.121
176.425 704.576
176.488 701.038
176.552 697.506
176.615 693.985
176.679 690.474
176.743 686.971
176.806 683.48
176.87 680.001
176.934 676.534
176.997 673.081
177.061 669.643
177.125 666.219
177.188 662.811
177.252 659.419
177.315 656.044
177.379 652.689
177.443 649.35
177.506 646.032
177.57 642.733
177.634 639.457
177.697 636.199
177.761 632.964
177.824 629.753
177.888 626.565
177.952 623.4
178.015 620.259
178.079 617.144
178.143 614.055
178.206 610.992
178.27 607.955
178.333 604.947
178.397 601.965
178.461 599.012
178.524 596.089
178.588 593.194
178.651 590.329
178.715 587.494
178.779 584.689
178.842 581.917
178.906 579.175
178.969 576.466
179.033 573.788
179.097 571.144
179.16 568.533
179.224 565.954
179.288 563.409
179.351 560.898
179.415 558.421
179.478 555.979
179.542 553.572
179.606 551.2
179.669 548.862
179.733 546.561
179.797 544.295
179.86 542.065
179.924 539.871
179.987 537.713
180.051 535.591
180.115 533.505
180.178 531.456
180.242 529.444
180.306 527.469
180.369 525.53
180.433 523.629
180.496 521.763
180.56 519.934
180.624 518.143
180.687 516.389
180.751 514.671
180.815 512.991
180.878 511.347
180.942 509.74
181.006 508.168
181.069 506.634
181.133 505.137
181.196 503.675
181.26 502.25
181.324 500.861
181.387 499.509
181.451 498.192
181.515 496.91
181.578 495.664
181.642 494.454
181.705 493.278
181.769 492.137
181.833 491.031
181.896 489.96
181.96 488.922
182.023 487.918
182.087 486.949
182.151 486.012
182.214 485.109
182.278 484.239
182.341 483.401
182.405 482.595
182.469 481.822
182.532 481.079
182.596 480.369
182.66 479.689
182.723 479.04
182.787 478.421
182.85 477.833
182.914 477.274
182.978 476.745
183.041 476.244
183.105 475.772
183.169 475.328
183.232 474.911
183.296 474.523
183.359 474.162
183.423 473.827
183.487 473.518
183.55 473.236
183.614 472.978
183.678 472.747
183.741 472.539
183.805 472.357
183.868 472.198
183.932 472.062
183.996 471.951
184.059 471.862
184.123 471.795
184.187 471.75
184.25 471.727
184.314 471.725
184.377 471.744
184.441 471.783
184.505 471.842
184.568 471.921
184.632 472.019
184.696 472.136
184.759 472.272
184.823 472.426
184.886 472.598
184.95 472.786
185.014 472.992
185.077 473.214
185.141 473.453
185.205 473.708
185.268 473.978
185.332 474.264
185.395 474.564
185.459 474.879
185.523 475.208
185.586 475.55
185.65 475.907
185.714 476.276
185.777 476.658
185.841 477.053
185.904 477.46
185.968 477.88
186.032 478.311
186.095 478.753
186.159 479.206
186.222 479.671
186.286 480.145
186.35 480.63
186.413 481.124
186.477 481.629
186.54 482.143
186.604 482.667
186.668 483.199
186.731 483.74
186.795 484.289
186.859 484.848
186.922 485.413
186.986 485.987
187.05 486.569
187.113 487.159
187.177 487.754
187.24 488.358
187.304 488.969
187.368 489.586
187.431 490.21
187.495 490.84
187.559 491.476
187.622 492.118
187.686 492.767
187.749 493.422
187.813 494.081
187.877 494.747
187.94 495.418
188.004 496.094
188.068 496.775
188.131 497.461
188.195 498.152
188.258 498.848
188.322 499.549
188.386 500.254
188.449 500.963
188.513 501.677
188.577 502.395
188.64 503.118
188.704 503.845
188.767 504.575
188.831 505.309
188.895 506.047
188.958 506.789
189.022 507.535
189.086 508.284
189.149 509.038
189.213 509.794
189.276 510.552
189.34 511.316
189.404 512.082
189.467 512.85
189.531 513.622
189.594 514.397
189.658 515.174
189.722 515.956
189.785 516.739
189.849 517.525
189.912 518.313
189.976 519.104
190.04 519.898
190.103 520.693
190.167 521.491
190.231 522.291
190.294 523.093
190.358 523.896
190.421 524.702
190.485 525.509
190.549 526.318
190.612 527.128
190.676 527.939
190.74 528.753
190.803 529.566
190.867 530.38
190.931 531.196
190.994 532.013
191.058 532.829
191.121 533.647
191.185 534.464
191.249 535.281
191.312 536.099
191.376 536.915
191.44 537.731
191.503 538.547
191.567 539.362
191.63 540.175
191.694 540.988
191.758 541.799
191.821 542.608
191.885 543.416
191.949 544.221
192.012 545.023
192.076 545.823
192.139 546.62
192.203 547.415
192.267 548.205
192.33 548.991
192.394 549.774
192.458 550.552
192.521 551.326
192.585 552.095
192.648 552.859
192.712 553.616
192.776 554.369
192.839 555.115
192.903 555.854
192.966 556.587
193.03 557.312
193.094 558.03
193.157 558.74
193.221 559.44
193.285 560.133
193.348 560.817
193.412 561.491
193.475 562.155
193.539 562.808
193.603 563.45
193.666 564.083
193.73 564.703
193.793 565.31
193.857 565.906
193.921 566.489
193.984 567.058
194.048 567.614
194.112 568.155
194.175 568.681
194.239 569.192
194.302 569.688
194.366 570.168
194.43 570.63
194.493 571.076
194.557 571.504
194.621 571.914
194.684 572.306
194.748 572.678
194.811 573.031
194.875 573.363
194.939 573.676
195.002 573.967
195.066 574.236
195.13 574.484
195.193 574.709
195.257 574.911
195.321 575.09
195.384 575.244
195.448 575.373
195.511 575.477
195.575 575.557
195.639 575.61
195.702 575.637
195.766 575.635
195.83 575.607
195.893 575.551
195.957 575.466
196.02 575.352
196.084 575.209
196.148 575.036
196.211 574.833
196.275 574.597
196.338 574.332
196.402 574.035
196.466 573.704
196.529 573.342
196.593 572.947
196.657 572.517
196.72 572.055
196.784 571.557
196.847 571.025
196.911 570.458
196.975 569.856
197.038 569.217
197.102 568.542
197.165 567.831
197.229 567.082
197.293 566.297
197.356 565.473
197.42 564.612
197.484 563.713
197.547 562.775
197.611 561.799
197.674 560.783
197.738 559.728
197.802 558.634
197.865 557.499
197.929 556.326
197.993 555.11
198.056 553.855
198.12 552.561
198.183 551.224
198.247 549.847
198.311 548.429
198.374 546.971
198.438 545.47
198.502 543.929
198.565 542.346
198.629 540.721
198.692 539.056
198.756 537.349
198.82 535.601
198.883 533.81
198.947 531.978
199.011 530.105
199.074 528.191
199.138 526.235
199.201 524.238
199.265 522.2
199.329 520.121
199.392 518.001
199.456 515.841
199.52 513.64
199.583 511.399
199.647 509.118
199.711 506.796
199.774 504.435
199.838 502.034
199.901 499.595
199.965 497.117
200.029 494.6
200.092 492.045
200.156 489.452
200.219 486.821
200.283 484.154
200.347 481.449
200.41 478.708
200.474 475.931
200.537 473.119
200.601 470.272
200.665 467.39
200.728 464.474
200.792 461.524
200.856 458.542
200.919 455.526
200.983 452.478
201.046 449.399
201.11 446.29
201.174 443.149
201.237 439.98
201.301 436.78
201.365 433.553
201.428 430.297
201.492 427.014
201.555 423.705
201.619 420.369
201.683 417.009
201.746 413.624
201.81 410.215
201.874 406.783
201.937 403.329
202.001 399.852
202.064 396.355
202.128 392.839
202.192 389.302
202.255 385.747
202.319 382.174
202.383 378.583
202.446 374.977
202.51 371.355
202.573 367.719
202.637 364.068
202.701 360.404
202.764 356.73
202.828 353.043
202.892 349.345
202.955 345.638
203.019 341.921
203.082 338.197
203.146 334.466
203.21 330.728
203.273 326.984
203.337 323.237
203.401 319.486
203.464 315.731
203.528 311.975
203.591 308.217
203.655 304.459
203.719 300.702
203.782 296.945
203.846 293.191
203.909 289.441
203.973 285.694
204.037 281.952
204.1 278.215
204.164 274.486
204.228 270.763
204.291 267.048
204.355 263.342
204.418 259.646
204.482 255.961
204.546 252.287
204.609 248.625
204.673 244.976
204.736 241.341
204.8 237.72
204.864 234.114
204.927 230.525
204.991 226.952
205.055 223.398
205.118 219.861
205.182 216.343
205.246 212.844
205.309 209.366
205.373 205.91
205.436 202.475
205.5 199.062
205.564 195.673
205.627 192.307
205.691 188.965
205.755 185.649
205.818 182.359
205.882 179.094
205.945 175.856
206.009 172.645
206.073 169.463
206.136 166.308
206.2 163.183
206.264 160.087
206.327 157.021
206.391 153.985
206.454 150.98
206.518 148.006
206.582 145.064
206.645 142.155
206.709 139.278
206.773 136.434
206.836 133.622
206.9 130.845
206.963 128.103
207.027 125.394
207.091 122.719
207.154 120.08
207.218 117.476
207.281 114.908
207.345 112.375
207.409 109.878
207.472 107.417
207.536 104.992
207.6 102.604
207.663 100.253
207.727 97.9384
207.79 95.6608
207.854 93.4202
207.918 91.2167
207.981 89.0504
208.045 86.9214
208.108 84.8297
208.172 82.7754
208.236 80.7584
208.299 78.7787
208.363 76.8364
208.427 74.9314
208.49 73.0637
208.554 71.2333
208.617 69.4398
208.681 67.6835
208.745 65.9641
208.808 64.2814
208.872 62.6355
208.936 61.026
208.999 59.453
209.063 57.9161
209.126 56.4152
209.19 54.9502
209.254 53.5206
209.317 52.1264
209.381 50.7673
209.445 49.4431
209.508 48.1536
209.572 46.8983
209.636 45.677
209.699 44.4895
209.763 43.3354
209.826 42.2143
209.89 41.1262
209.954 40.0703
210.017 39.0467
210.081 38.0547
210.145 37.094
210.208 36.1645
210.272 35.2654
210.335 34.3966
210.399 33.5576
210.463 32.7479
210.526 31.9672
210.59 31.2151
210.654 30.4912
210.717 29.7949
210.781 29.1259
210.844 28.4837
210.908 27.8678
210.972 27.278
211.035 26.7134
211.099 26.1739
211.162 25.6589
211.226 25.1679
211.29 24.7005
211.353 24.2562
211.417 23.8344
211.48 23.4348
211.544 23.0567
211.608 22.6999
211.671 22.3637
211.735 22.0476
211.799 21.7512
211.862 21.474
211.926 21.2155
211.989 20.9751
212.053 20.7526
212.117 20.5472
212.18 20.3585
212.244 20.1861
212.308 20.0294
212.371 19.8881
212.435 19.7614
212.498 19.6491
212.562 19.5507
212.626 19.4657
212.689 19.3934
212.753 19.3337
212.817 19.2858
212.88 19.2495
212.944 19.2242
213.007 19.2096
213.071 19.205
213.135 19.2102
213.198 19.2246
213.262 19.2479
213.326 19.2796
213.389 19.3192
213.453 19.3665
213.517 19.4209
213.58 19.4821
213.644 19.5496
213.707 19.6232
213.771 19.7023
213.835 19.7867
213.898 19.8759
213.962 19.9697
214.026 20.0675
214.089 20.1691
214.153 20.2743
214.216 20.3824
214.28 20.4935
214.344 20.6069
214.407 20.7225
214.471 20.84
214.534 20.9591
214.598 21.0794
214.662 21.2008
214.725 21.3228
214.789 21.4453
214.852 21.5681
214.916 21.6908
214.98 21.8133
215.043 21.9352
215.107 22.0565
215.171 22.1768
215.234 22.2959
215.298 22.4137
215.361 22.5301
215.425 22.6447
215.489 22.7574
215.552 22.8681
215.616 22.9766
215.68 23.0828
215.743 23.1864
215.807 23.2874
215.87 23.3858
215.934 23.4812
215.998 23.5737
216.061 23.6631
216.125 23.7493
216.189 23.8323
216.252 23.9119
216.316 23.9882
216.379 24.0609
216.443 24.1302
216.507 24.1959
216.57 24.2579
216.634 24.3163
216.698 24.3709
216.761 24.422
216.825 24.4692
216.888 24.5126
216.952 24.5523
217.016 24.5882
217.079 24.6204
217.143 24.6489
217.207 24.6736
217.27 24.6946
217.334 24.7119
217.397 24.7256
217.461 24.7356
217.525 24.7421
217.588 24.745
217.652 24.7446
217.716 24.7406
217.779 24.7333
217.843 24.7225
217.906 24.7087
217.97 24.6916
218.034 24.6714
218.097 24.6482
218.161 24.622
218.225 24.5929
218.288 24.5612
218.352 24.5266
218.415 24.4895
218.479 24.4497
218.543 24.4076
218.606 24.3631
218.67 24.3164
218.733 24.2675
218.797 24.2167
218.861 24.1638
218.924 24.1091
218.988 24.0526
219.051 23.9946
219.115 23.9349
219.179 23.8738
219.242 23.8114
219.306 23.7477
219.37 23.6829
219.433 23.6172
219.497 23.5504
219.56 23.4828
219.624 23.4146
219.688 23.3457
219.751 23.2764
219.815 23.2065
219.878 23.1364
219.942 23.066
220.006 22.9956
220.069 22.9251
220.133 22.8547
220.197 22.7844
220.26 22.7144
220.324 22.6447
220.388 22.5755
220.451 22.5068
220.515 22.4386
220.579 22.3711
220.642 22.3043
220.706 22.2384
220.77 22.1735
220.833 22.1094
220.897 22.0464
220.96 21.9844
221.024 21.9238
